Energy,Transmission(keV),counts_nonatt_C5(ct / (keV s)),counts_noatt_M1)(ct / (keV s)),counts_attenuated_C5(ct / (keV s)),counts_attenuated_M1(ct / (keV s))
1.005,7.529610150259883e-19,0.1583126074706267,0.3230097657251857,1.1920322161249393e-19,2.432137610637425e-19
1.015,2.0115567988596953e-18,0.1749070432145075,0.3572359521416735,3.518354519465891e-19,7.186004083277e-19
1.025,5.190462708802327e-18,0.1928104088377772,0.3942294088933745,1.0007752369414133e-18,2.0462330455742448e-18
1.035,1.295587013098642e-17,0.2120505599886019,0.4340690884998996,2.7472995164152712e-18,5.6237427384803504e-18
1.045,3.1329286017351257e-17,0.233106405927361,0.4777212131032345,7.303057263775077e-18,1.4966664521867245e-17
1.055,7.349547983060175e-17,0.2561364384506929,0.5255262122661634,1.8824870446035066e-17,3.862380113406034e-17
1.065,1.6748196754135268e-16,0.2812983489097529,0.5778216169325733,4.711240094153934e-17,9.677470129179316e-17
1.075,3.712051949858517e-16,0.3087976439655339,0.6350473174437217,1.146272896393976e-16,2.3573286329693876e-16
1.085,8.011464130363724e-16,0.3387988814356817,0.6975450039536122,2.7142750860293164e-16,5.588356778488786e-16
1.095,1.6855769629392934e-15,0.3707731950111146,0.7640787937781619,6.249667559861329e-16,1.2879136126629128e-15
1.105,3.460878831319175e-15,0.4051516243345543,0.8355599127907042,1.4021806801340378e-15,2.8917716144762442e-15
1.115,6.941675668740521e-15,0.4423164518463282,0.9130235493014734,3.0704173516652944e-15,6.33791335717315e-15
1.125,1.3614430104737418e-14,0.4831202620251822,0.9980965784017556,6.5774070395242706e-15,1.3588516104428272e-14
1.135,2.613294316131015e-14,0.5271975383088374,1.090155481438689,1.3777223303407479e-14,2.848897123342796e-14
1.145,4.9136921373061856e-14,0.5783410558726938,1.195892780774509,2.841789898923013e-14,5.876248953952934e-14
1.155,9.057681683368244e-14,0.6430682300911281,1.32704935065954,5.824707328852447e-14,1.2019990596394637e-13
1.165,1.6381629767401847e-13,0.7000689913370439,1.446013551448973,1.1468271027721905e-13,2.3688058638482955e-13
1.175,2.909063740545526e-13,0.7615072331896028,1.574328399205567,2.21527308023502e-13,4.579821661839997e-13
1.185,5.075924831071624e-13,0.8267821380939849,1.710632815473899,4.196683984637747e-13,8.683043584909928e-13
1.195,8.708395136530077e-13,0.8965243746930253,1.856317293366377,7.807288504357409e-13,1.6165544489408432e-12
1.205,1.4699531864265959e-12,0.9714219210157068,2.012855924538885,1.4279447481616832e-12,2.9588039800935857e-12
1.215,2.4427540554442146e-12,1.051268223006722,2.179918002231412,2.5679897151093034e-12,5.3250035404866326e-12
1.225,3.998738178180519e-12,1.136422796114095,2.358205157885975,4.544257221376088e-12,9.429844996820866e-12
1.235,6.451751975581329e-12,1.227098323816924,2.548151653446206,7.916934034918376e-12,1.6440042464202388e-11
1.245,1.0265433175973375e-11,1.323999193834959,2.751284300798271,1.3591425249355391e-11,2.824312513794928e-11
1.255,1.6115538715720546e-11,1.428489812026837,2.970223922999208,2.3020882870730858e-11,4.78667586254531e-11
1.265,2.4974305180586742e-11,1.548635023346741,3.219554254304348,3.8676083686406586e-11,8.040613049245316e-11
1.275,3.8223175206337343e-11,1.669049428042976,3.472320034045469,6.379636871612381e-11,1.3272309703379522e-10
1.285,5.780157669668924e-11,1.796578855591625,3.74007044852614,1.0384509051312949e-10,2.161819688815046e-10
1.295,8.640095721048878e-11,1.932827006493623,4.026156381882827,1.6699810348333266e-10,3.4786376527379445e-10
1.305,1.2771494283950466e-10,2.077489006227708,4.330122748747796,2.653263896800711e-10,5.530213793443635e-10
1.315,1.8675829094425817e-10,2.236124670648477,4.6620388578733,4.1761482182860174e-10,8.706744094121389e-10
1.325,2.702692124984094e-10,2.39983673849294,5.006455519230737,6.486019854372381e-10,1.3530907905908067e-09
1.335,3.87211617246392e-10,2.57348524382332,5.372205895186237,9.96483383220553e-10,2.080180532855664e-09
1.345,5.49395839802455e-10,2.870813429250009,5.992706345743635,1.5772129548789742e-09,3.292367935509325e-09
1.355,7.72238385869701e-10,3.098485966604843,6.471201977147786,2.392769801490844e-09,4.997310569469424e-09
1.365,1.075683136852696e-09,3.320165194598705,6.93846410752971,3.5714457113950767e-09,7.4635888361274e-09
1.375,1.4853082048451302e-09,3.555929984098082,7.435785858865264,5.2816519812356945e-09,1.104443374564397e-08
1.385,2.033644171247994e-09,3.80712075070266,7.965877690876816,7.742328923903751e-09,1.6199760734926068e-08
1.395,2.761730702477611e-09,4.101533847973227,8.579683259865583,1.1327331955198799e-08,2.3694774676303976e-08
1.405,3.720939447352733e-09,4.427168869417438,9.255379127759083,1.6473227286307344e-08,3.44387052966839e-08
1.415,4.975091617793394e-09,4.762980186128511,9.955649920982946,2.369626279972397e-08,4.953027047156772e-08
1.425,6.6028986777437416e-09,5.212289596553863,10.87780224813437,3.441622008510297e-08,7.182502608096433e-08
1.435,8.700754062711436e-09,5.710409678675808,11.90096919163778,4.968487021148525e-08,1.0354740604434605e-07
1.445,1.1385902781685917e-08,6.105707497947483,12.73076709075468,6.951899198504082e-08,1.4495127643161925e-07
1.455,1.4800014083712853e-08,6.525388787136412,13.61225765271544,9.657584595132082e-08,2.0146160497131658e-07
1.465,1.9113180085396153e-08,6.970743840835777,14.54821060991919,1.3323308235906025e-07,2.780625693076565e-07
1.475,2.452836034951952e-08,7.540875077272931,15.74279002663279,1.849653012460613e-07,3.86144826680071e-07
1.485,3.1286288890114054e-08,8.067771971334228,16.85024317888591,2.524106445947276e-07,5.271815759632984e-07
1.495,3.9670855981857956e-08,8.610992095376291,17.99334170936092,3.416054272765901e-07,7.138112675844149e-07
1.505,5.010712757260273e-08,9.186666872918831,19.20554996753533,4.6031748896834726e-07,9.62334942325289e-07
1.515,6.304693603993248e-08,9.796843582758106,20.49119247510292,6.176609707553733e-07,1.2919069013597597e-06
1.525,7.8890438567461e-08,10.44401681418996,21.85556946541998,8.239330668773827e-07,1.7241954602685914e-06
1.535,9.81869556194778e-08,11.19549208660415,23.43776315724837,1.0992512846456165e-06,2.3012826109405773e-06
1.545,1.21568962284107e-07,11.93849100367341,25.00532196988214,1.4513499625547235e-06,3.0398710434585536e-06
1.555,1.497610929528538e-07,12.72372063798254,26.66303807007539,1.9055183091710475e-06,3.99308572281804e-06
1.565,1.8358960892037096e-07,13.56202928412276,28.43350908030465,2.489847652438716e-06,5.220096812286947e-06
1.575,2.2399229118932077e-07,14.44251423906717,30.29459545067689,3.235011854943045e-06,6.78575584565069e-06
1.585,2.72028713633616e-07,15.62161670577676,32.8329073233319,4.249528297349858e-06,8.931493544017707e-06
1.595,3.2889084481971705e-07,17.15787691833053,36.18381076819801,5.643068634982451e-06,1.1900524092349418e-05
1.605,3.9591392032572317e-07,18.26383835032444,38.53967114973693,7.230907841472238e-06,1.525839229295652e-05
1.615,4.7458752144112377e-07,19.43408214021478,41.03421572342079,9.223172874407743e-06,1.9474326734458662e-05
1.625,5.665667907753736e-07,20.67022336126263,43.67076824763775,1.1711062114400722e-05,2.4742407016759205e-05
1.635,6.736837106399352e-07,21.97529283101193,46.45604339224575,1.4804396816795283e-05,3.129667969413796e-05
1.645,7.979583661709918e-07,23.35621970718185,49.40523568867254,1.863729091747355e-05,3.942332115042591e-05
1.655,9.416101120910644e-07,24.81697245493968,52.527039778188,2.336791221505661e-05,4.94599918133514e-05
1.665,1.1070685598135617e-06,26.36170268929596,55.83055754827311,2.9184212230472177e-05,6.180825493855489e-05
1.675,1.296984300307073e-06,27.99444830260093,59.32459967482274,3.6308359944231395e-05,7.694307440024718e-05
1.685,1.514239277772193e-06,29.71844222381938,63.01638240527863,4.50008324895109e-05,9.542188138118544e-05
1.695,1.7619567297443805e-06,31.53821569464621,66.91601134574114,5.5568971387311734e-05,0.00011790311651827991
1.705,2.043510610709141e-06,33.45598247949348,71.0284377279699,6.836765518854403e-05,0.00014514736615919995
1.715,2.3625344186741387e-06,35.47565711739736,75.36236632300107,8.381246096493345e-05,0.00017804618431081881
1.725,2.722929347348376e-06,37.61043257093529,79.94517582983595,0.00010241055061386692,0.00021768506544598634
1.735,3.1288716905799845e-06,39.85359112006997,84.7649003113951,0.0001246967730235368,0.0002652184969391586
1.745,3.5848194304437084e-06,42.21923484982442,89.85059063642053,0.00015134833342811673,0.0003220981431502839
1.755,4.09551794577758e-06,44.72060941848366,95.2310757455136,0.0001831540584195097,0.000390020579711455
1.765,4.666004783970738e-06,47.35185430780707,100.8948100507351,0.0002209439787301132,0.00047077566637454885
1.775,5.3016134453212234e-06,50.1057573886667,106.8280707085101,0.0002656413570597586,0.0005663611360059635
1.785,6.007976136233019e-06,53.00334221724682,113.0753656345737,0.000318442815181811,0.0006793540983283421
1.795,6.7910254548146925e-06,56.07066535672648,119.685464199162,0.00038077731570592587,0.0008127870339478217
1.805,7.656994979997965e-06,59.28168156206612,126.6156994590338,0.0004539195381265782,0.0009694957751467529
1.815,8.612418743025375e-06,62.65342445931599,133.8991985839785,0.0005395975271281375,0.0011531959675607332
1.825,9.664129567977134e-06,66.19263032281891,141.5508819502926,0.0006396941558849341,0.0013679660636290634
1.835,1.0819256275841895e-05,69.90923504807819,149.5917780920859,0.000756365930033226,0.0016184717839371483
1.845,4.0418392574502654e-36,73.85611596813094,158.1273871039461,2.9851454892279102e-34,6.391254808747642e-34
1.855,8.087590925824738e-36,78.33915096402575,167.7582607053706,6.335750064734689e-34,1.356760187012896e-33
1.865,1.602400871536414e-35,82.67348131317934,177.146866202658,1.32476058509188e-33,2.8386029279308368e-33
1.875,3.1442608813938296e-35,87.22056188667761,187.0029204494229,2.7424420079347003e-33,5.8798596747552266e-33
1.885,6.111430273945915e-35,91.98981660347678,197.3475013611839,5.621893500852206e-33,1.206075494306322e-32
1.895,1.1768565343036503e-34,96.9902397257434,208.2007465474931,1.141435973849186e-32,2.4502240902131544e-32
1.905,2.2456294846598846e-34,102.2314390151752,219.5841023742097,2.2957393371168631e-32,4.931045346540998e-32
1.915,4.246804393723271e-34,107.7239022495652,231.5210928725576,4.574823413824696e-32,9.83224794450791e-32
1.925,7.961040320875059e-34,113.5088493418929,244.1017988650777,9.036485263869417e-32,1.9433042631630173e-31
1.935,1.4795609335557441e-33,119.5762545962417,257.3105416859026,1.769203548815147e-31,3.8070662527052826e-31
1.945,2.72660161919269e-33,125.888211463129,271.0552573377403,3.432470012126393e-31,7.390597035477739e-31
1.955,4.983161721814935e-33,132.4924849824482,285.4456952490439,6.602314795926759e-31,1.422422062221887e-30
1.965,9.033369426084847e-33,139.3978588764603,300.5028410797947,1.2592323564363066e-30,2.7145531770618508e-30
1.975,1.6245067231519005e-32,146.6188708755664,316.2583899722683,2.38183341478298e-30,5.137638807631454e-30
1.985,2.898572243201066e-32,154.1657592893375,332.7354440972648,4.468605907280906e-30,9.644577225895118e-30
1.995,5.132158389686516e-32,162.1179810616607,350.0927025618527,8.320151566246416e-30,1.7967312006208385e-29
2.005,1.0521148162574992e-31,170.5815049283548,368.5429751978278,1.794713287146237e-29,3.8774952463325464e-29
2.015,2.482768605193041e-31,179.2227546865008,387.4362897707661,4.449686286718581e-29,9.619146567553318e-29
2.025,5.771065535707443e-31,188.2433154211478,407.171447325151,1.0863645099542915e-28,2.3498131067822976e-28
2.035,1.321810237448379e-30,197.6483862975994,427.7611676411315,2.612536604233188e-28,5.654190905709199e-28
2.045,2.9841336462469437e-30,207.4548410432691,449.2430084416696,6.190729712340308e-28,1.340601176831986e-27
2.055,6.642664754628947e-30,217.6910798525996,471.6776759070651,1.4460488635339789e-27,3.1331966732931568e-27
2.065,1.4583992370615445e-29,228.4747005956307,495.3062918203389,3.3320732903653264e-27,7.22354318102565e-27
2.075,3.1590176774120294e-29,241.3492369981841,523.5485473826831,7.62426506107169e-27,1.6538991161652851e-26
2.085,6.753007345116945e-29,253.4372119480271,550.0808771822153,1.7114633538109873e-26,3.7147002040198724e-26
2.095,1.4250711176906022e-28,266.2209068190597,578.0970871449643,3.79383725233243e-26,8.238294621113558e-26
2.105,2.969554701713609e-28,280.4432608075377,609.2764321123448,8.327916036949194e-26,1.8092796936225058e-25
2.115,6.111949216815354e-28,294.9998771465466,641.2427781836603,1.803024268086461e-25,3.9192432959081243e-25
2.125,1.2428445544742616e-27,309.1829820478234,672.4302255637207,3.8426638557425063e-25,8.357262441057697e-25
2.135,2.4975524723309066e-27,323.9610744010333,704.9418828115251,8.091097823092774e-25,1.760629342265529e-24
2.145,4.961149568793346e-27,339.3766173082029,738.8703403558404,1.6836981586171353e-24,3.665646270450571e-24
2.155,9.743752838417775e-27,355.428586637708,774.2162787202748,3.463208299905985e-24,7.543772063329925e-24
2.165,1.8925617480265608e-26,372.1218530567539,810.9929982559646,7.04263584699973e-24,1.53485432641661e-23
2.175,3.636258022366341e-26,389.498169480843,849.2920358019184,1.41631584347172e-23,3.0882449785165677e-23
2.185,6.912554547470754e-26,407.5821917893606,889.1688487947114,2.817434133321642e-23,6.146428169205218e-23
2.195,1.3004618443391856e-25,426.3980485514703,930.6777882845468,5.545143926418746e-23,1.2103109530380357e-22
2.205,2.4217277913825936e-25,445.9721082287289,973.878190715004,1.0800230486789986e-22,2.358467879875923e-22
2.215,4.464911600566764e-25,466.3303633751071,1018.829036096231,2.0821238491300303e-22,4.548981582260317e-22
2.225,8.15171742307999e-25,487.4980744144388,1065.58732362633,3.9739465469221262e-22,8.68636675181793e-22
2.235,1.474078992649553e-24,509.5132469471845,1114.235970964667,7.510627738015087e-22,1.6424718376534932e-21
2.245,2.6406589750331588e-24,532.9776398298361,1166.178742779112,1.4074121881086471e-21,3.079480363612548e-21
2.255,4.687121924842855e-24,556.9579128781091,1219.246876529793,2.6105296446657022e-21,5.714758766778963e-21
2.265,8.244854260830423e-24,581.7522757361606,1274.123095106332,4.79646272935108e-21,1.0504959229509888e-20
2.275,1.4375434528854223e-23,607.4801564969931,1331.085573887137,8.732791217300642e-21,1.9134933519716887e-20
2.285,2.484830690407696e-23,634.6498753584733,1391.456886838259,1.5769974879541534e-20,3.457534776794854e-20
2.295,4.258779482080555e-23,663.2176471497198,1455.11186484021,2.824497707834968e-20,6.19700055411346e-20
2.305,7.238672671866272e-23,692.0912950158912,1519.15960938424,5.00982234366807e-20,1.0996699148652738e-19
2.315,1.2203637969318715e-22,722.0623072672124,1585.669082807593,8.81178698918003e-20,1.9350931425725522e-19
2.325,2.041012857300744e-22,753.5075980813504,1655.521296952281,1.5379186957578375e-19,3.3789402526148086e-19
2.335,3.3868504352455312e-22,785.7847846425028,1727.208515128995,2.6613355398757767e-19,5.849796911224425e-19
2.345,5.57707323982271e-22,819.2577634990739,1801.580902941056,4.569060549327688e-19,1.00475486431682e-18
2.355,9.114678743159693e-22,853.9611883186415,1878.717218554917,7.783581890651313e-19,1.7123903896370606e-18
2.365,1.4786459312226057e-21,889.9304744150483,1958.697992638882,1.3158920750648143e-18,2.896220817309368e-18
2.375,2.381422598239562e-21,927.2051585744885,2041.613040893213,2.2080673178335834e-18,4.861943432443689e-18
2.385,3.8081882387671745e-21,965.8278001983969,2127.558596690639,3.6780540693899076e-18,8.102143625205287e-18
2.395,6.047401656741461e-21,1005.829636874292,2216.607142833254,6.082655812433255e-18,1.3404713707914776e-17
2.405,9.537732653909898e-21,1047.261990855298,2308.873416265483,9.988504887379266e-18,2.2021417376059794e-17
2.415,1.4941821011748676e-20,1090.159682616652,2404.437631140406,1.6288970851882756e-17,3.5926676718412934e-17
2.425,2.3254061397409806e-20,1134.546217762955,2503.356258137657,2.638280740605883e-17,5.821320012632315e-17
2.435,3.5957094765529913e-20,1180.536986391708,2605.885595900533,4.2448680293899746e-17,9.370007531992486e-17
2.445,5.524757831629674e-20,1228.229976025183,2712.24437937882,6.785673179087457e-17,1.4984493376266702e-16
2.455,8.435988152254676e-20,1277.425095153465,2821.996575305998,1.0776342968107433e-16,2.380632967498467e-16
2.465,1.2802735626940623e-19,1328.433262681414,2935.828881314947,1.7007579860144308e-16,3.7586641013412103e-16
2.475,1.931357232894785e-19,1381.429173861118,3054.172560564145,2.668033226668538e-16,5.898698265354347e-16
2.485,2.896431627681419e-19,1436.28290723987,3176.70959341084,4.1600952388277773e-16,9.201122138314139e-16
2.495,4.3186851819383013e-19,1492.526510355699,3302.373424637691,6.44575212392324e-16,1.4261911174209638e-15
2.505,6.402847032391167e-19,1550.629692763535,3432.239586381566,9.928444726648628e-16,2.1976105050118697e-15
2.515,9.440016004124784e-19,1610.642959517559,3566.42336484517,1.5204495314776662e-15,3.3667093641622967e-15
2.525,1.3841848298752597e-18,1672.611857089283,3705.029682946658,2.315203958852471e-15,5.128445881372307e-15
2.535,2.0187380007506638e-18,1736.582547657183,3848.165003526405,3.505705180395956e-15,7.768436925777565e-15
2.545,2.928681770492851e-18,1802.601979934311,3995.937485739254,5.2792475580879364e-15,1.1702829270513591e-14
2.555,4.226799885223153e-18,1870.719363154976,4148.459984044842,7.907156389468183e-15,1.7534710184413582e-14
2.565,6.069298611600534e-18,1940.981088893641,4305.83879058778,1.1780393827965068e-14,2.6133421393490134e-14
2.575,8.671451787434429e-18,2013.427106924189,4468.169201176455,1.745933608520669e-14,3.8745513806101036e-14
2.585,1.2328491621427525e-17,2088.260054096926,4635.868758609687,2.5745096580295744e-14,5.715326914855714e-14
2.595,1.7443370637345556e-17,2165.328206201184,4808.654500022183,3.7770622452265854e-14,8.387914271082653e-14
2.605,2.4563481344884455e-17,2244.657097339888,4986.591794579819,5.513659273617083e-14,1.224880545207153e-13
2.615,3.44289997677851e-17,2326.363912123764,5169.92950899369,8.00943825902927e-14,1.779955018646091e-13
2.625,4.8036243863980865e-17,2410.480818405703,5358.746696677427,1.1579044442238453e-13,2.574140631268988e-13
2.635,6.67203404497262e-17,2497.069250655234,5553.182411934979,1.6660531053025991e-13,3.7051022110373353e-13
2.645,9.226261299201048e-17,2586.661595025696,5754.419358912611,2.3865215768315234e-13,5.309177663050873e-13
2.655,1.2702948321565958e-16,2679.705013225525,5963.457828464374,3.4040154300045065e-13,7.575349661282089e-13
2.665,1.741513757640107e-16,2774.223368301553,6175.965525935047,4.831348162663832e-13,1.0755528930126903e-12
2.675,2.377521904511515e-16,2871.558379840432,6394.972097190475,6.827192948154224e-13,1.5204186239810295e-12
2.685,3.232424349652705e-16,2971.418857288776,6619.630995482734,9.604886667317457e-13,2.1397456415514163e-12
2.695,4.37692178385494e-16,3074.043929327483,6850.595734180243,1.3454849838800497e-12,2.9984521701317235e-12
2.705,5.903036924083267e-16,3179.478771100762,7087.973065758081,1.876858058514669e-12,4.184056672407763e-12
2.715,7.93008107938379e-16,3287.768219325644,7331.869122256758,2.6072268549473626e-12,5.814231660292655e-12
2.725,1.061215762009781e-15,3398.957758985067,7582.391612780441,3.6070275482403954e-12,8.046553493213369e-12
2.735,1.4147562952004084e-15,3513.092017665781,7839.646154742068,4.970169047610968e-12,1.1091188749565015e-11
2.745,1.8790521551215036e-15,3630.21267803705,8103.732619572123,6.8213589562149235e-12,1.5227336243335426e-11
2.755,2.486578162609032e-15,3750.480401469023,8374.994033524465,9.325862665586027e-12,2.0825077275742866e-11
2.765,3.2786704245446936e-15,3873.933662640953,8653.526843168695,1.2701351726348994e-11,2.8372062528700805e-11
2.775,4.307760378835426e-15,4000.345386125167,8938.875119323917,1.7232529356007098e-11,3.850653207038136e-11
2.785,5.640124410700729e-15,4129.892306935991,9231.41729246552,2.329310641391483e-11,5.206634201659961e-11
2.795,7.359256594664138e-15,4262.63159713428,9531.286047658263,3.136979969183418e-11,7.014317970185936e-11
